# Time (s), X (m), Y (m), Z (m), Vx (m/s), Vy (m/s), Vz (m/s), e0, e1, e2, e3, ω1 (rad/s), ω2 (rad/s), ω3 (rad/s)
0.000000,0.000000,0.000000,1471.466078,0.000000,0.000000,0.000000,0.704416,-0.061628,0.061628,-0.704416,0.000000,0.000000,0.000000
0.600000,1.496766,0.000477,1479.773748,5.456399,0.001625,29.063772,0.704344,-0.061005,0.062444,-0.704470,-0.003500,0.022584,0.000000
1.200000,6.860846,-0.118501,1507.163160,12.442831,-0.661211,61.912679,0.702527,-0.051030,0.081337,-0.705149,-0.045840,0.106864,0.000000
1.800000,16.494013,-1.209454,1553.349363,19.661084,-3.183338,90.988236,0.699810,-0.047513,0.107502,-0.704593,-0.035276,-0.008735,0.000000
2.400000,28.742485,-3.295525,1608.158923,20.469534,-3.485221,88.650987,0.700625,-0.054529,0.102727,-0.703987,-0.004032,0.017866,0.000000
3.000000,41.002746,-5.372774,1659.518018,20.402013,-3.453241,82.549307,0.698352,-0.049922,0.120700,-0.703735,-0.045345,0.040055,0.000000
3.600000,53.230891,-7.445397,1707.222219,20.359208,-3.448222,76.470203,0.697900,-0.055933,0.126875,-0.702645,-0.014540,-0.011978,0.000000
4.200000,65.430960,-9.502446,1751.289559,20.305991,-3.408914,70.425944,0.696712,-0.056414,0.135877,-0.702103,-0.037814,0.048986,0.000000
4.800000,77.599458,-11.541989,1791.737550,20.258310,-3.393686,64.403540,0.694037,-0.056940,0.154764,-0.700799,-0.047507,0.025888,0.000000
5.400000,89.742900,-13.574634,1828.577996,20.219937,-3.378714,58.402165,0.692647,-0.062880,0.166347,-0.699010,-0.038958,0.012246,0.000000
6.000000,101.862654,-15.593583,1861.825203,20.178763,-3.350753,52.425586,0.690328,-0.066429,0.181466,-0.697212,-0.054270,0.043753,0.000000
6.600000,113.957686,-17.597089,1891.492355,20.138815,-3.329474,46.467451,0.686037,-0.069104,0.205584,-0.694487,-0.073838,0.053029,0.000000
7.200000,126.030313,-19.590375,1917.589026,20.104010,-3.315060,40.523924,0.681132,-0.075320,0.232098,-0.690302,-0.084584,0.044543,0.000000
7.800000,138.083012,-21.574668,1940.124200,20.071820,-3.298560,34.596009,0.675619,-0.084413,0.260001,-0.684699,-0.098103,0.049295,0.000000
8.400000,150.116555,-23.548006,1959.107372,20.040013,-3.278990,28.683697,0.667808,-0.094519,0.294157,-0.677178,-0.122766,0.069335,0.000000
9.000000,162.131115,-25.509517,1974.547367,20.008657,-3.259650,22.785049,0.655880,-0.105824,0.338457,-0.666385,-0.157872,0.093511,0.000000
9.600000,174.127249,-27.460108,1986.451711,19.978837,-3.242899,16.897803,0.638283,-0.119782,0.394183,-0.650283,-0.200579,0.115923,0.000000
10.200000,186.106156,-29.401553,1994.826803,19.951217,-3.228931,11.020954,0.613404,-0.137766,0.460948,-0.626324,-0.250149,0.137076,0.000000
10.800000,198.069227,-31.335177,1999.679072,19.926221,-3.216767,5.155139,0.578501,-0.160382,0.538699,-0.591111,-0.309916,0.162888,0.000000
11.400000,210.018493,-33.262094,2001.014791,19.905634,-3.206745,-0.699831,0.529309,-0.187264,0.626836,-0.540215,-0.379163,0.195057,0.000000
12.000000,221.957405,-35.183944,1998.840338,19.892052,-3.200039,-6.547848,0.461181,-0.216720,0.721249,-0.469187,-0.447456,0.228795,0.000000
12.600000,233.890249,-37.102707,1993.156409,19.888091,-3.197882,-12.406248,0.372946,-0.245093,0.811391,-0.377420,-0.483025,0.247771,0.000000
13.200000,245.563172,-38.879790,1984.299776,18.513584,-2.449488,-16.361150,0.335288,-0.254607,0.841555,-0.338436,-0.475874,0.244822,0.000000
13.800000,256.049104,-40.011692,1973.717332,16.477783,-1.345246,-18.861616,0.335277,-0.254610,0.841563,-0.338425,-0.475869,0.244821,0.000000
14.400000,265.378047,-40.518740,1961.725660,14.652073,-0.365279,-21.061161,0.335276,-0.254610,0.841564,-0.338424,-0.475869,0.244820,0.000000
15.000000,273.667384,-40.472192,1948.502276,13.007684,0.502598,-22.968565,0.335276,-0.254610,0.841564,-0.338424,-0.475869,0.244820,0.000000
15.600000,281.018556,-39.935365,1934.219233,11.521520,1.270785,-24.595544,0.335276,-0.254610,0.841564,-0.338424,-0.475869,0.244820,0.000000
16.200000,287.521932,-38.965626,1919.039289,10.179883,1.946609,-25.961826,0.335276,-0.254610,0.841564,-0.338424,-0.475869,0.244820,0.000000
16.800000,293.260871,-37.616516,1903.110563,8.972802,2.535679,-27.092769,0.335276,-0.254610,0.841564,-0.338424,-0.475869,0.244820,0.000000
17.400000,298.313776,-35.938697,1886.566966,7.891297,3.043327,-28.016266,0.335276,-0.254610,0.841564,-0.338424,-0.475869,0.244820,0.000000
18.000000,302.753263,-33.979345,1869.524373,6.926679,3.475000,-28.761362,0.335276,-0.254610,0.841564,-0.338424,-0.475869,0.244820,0.000000
18.600000,306.646658,-31.782254,1852.081250,6.069881,3.836526,-29.355771,0.335276,-0.254610,0.841564,-0.338424,-0.475869,0.244820,0.000000
19.200000,310.056409,-29.388052,1834.321694,5.311604,4.133944,-29.825060,0.335276,-0.254610,0.841564,-0.338424,-0.475869,0.244820,0.000000
19.800000,313.038581,-26.833213,1816.313105,4.642501,4.373375,-30.191541,0.335276,-0.254610,0.841564,-0.338424,-0.475869,0.244820,0.000000
20.400000,315.643681,-24.150569,1798.110143,4.053425,4.560826,-30.474438,0.335276,-0.254610,0.841564,-0.338424,-0.475869,0.244820,0.000000
21.000000,317.917162,-21.369624,1779.757912,3.535685,4.701999,-30.690044,0.335276,-0.254610,0.841564,-0.338424,-0.475869,0.244820,0.000000
21.600000,319.899328,-18.516495,1761.292907,3.081191,4.802200,-30.852040,0.335276,-0.254610,0.841564,-0.338424,-0.475869,0.244820,0.000000
22.200000,321.625820,-15.614252,1742.743994,2.682480,4.866324,-30.971577,0.335276,-0.254610,0.841564,-0.338424,-0.475869,0.244820,0.000000
22.800000,323.128124,-12.683247,1724.133818,2.332734,4.898837,-31.057618,0.335276,-0.254610,0.841564,-0.338424,-0.475869,0.244820,0.000000
23.400000,324.433987,-9.741377,1705.480532,2.025811,4.903758,-31.117475,0.335276,-0.254610,0.841564,-0.338424,-0.475869,0.244820,0.000000
24.000000,325.566969,-6.803804,1686.797523,1.756360,4.884582,-31.156678,0.335276,-0.254610,0.841564,-0.338424,-0.475869,0.244820,0.000000
24.600000,326.548412,-3.884242,1668.095835,1.519461,4.844522,-31.179869,0.335276,-0.254610,0.841564,-0.338424,-0.475869,0.244820,0.000000
25.200000,327.396277,-0.994192,1649.383804,1.310930,4.786299,-31.190598,0.335276,-0.254610,0.841564,-0.338424,-0.475869,0.244820,0.000000
25.800000,328.126680,1.856046,1630.668322,1.126986,4.712372,-31.191829,0.335276,-0.254610,0.841564,-0.338424,-0.475869,0.244820,0.000000
26.400000,328.753133,4.657825,1611.954380,0.964429,4.624838,-31.185747,0.335276,-0.254610,0.841564,-0.338424,-0.475869,0.244820,0.000000
27.000000,329.287800,7.403387,1593.246012,0.820357,4.525589,-31.174142,0.335276,-0.254610,0.841564,-0.338424,-0.475869,0.244820,0.000000
27.600000,329.740872,10.086399,1574.545976,0.692324,4.416150,-31.158261,0.335276,-0.254610,0.841564,-0.338424,-0.475869,0.244820,0.000000
28.200000,330.121510,12.701135,1555.856490,0.578122,4.297917,-31.139118,0.335276,-0.254610,0.841564,-0.338424,-0.475869,0.244820,0.000000
28.800000,330.437134,15.242452,1537.179269,0.475981,4.172277,-31.117480,0.335276,-0.254610,0.841564,-0.338424,-0.475869,0.244820,0.000000
29.400000,330.694525,17.705918,1518.515708,0.384270,4.040375,-31.093997,0.335276,-0.254610,0.841564,-0.338424,-0.475869,0.244820,0.000000
30.000000,330.900005,20.089418,1499.866470,0.301378,3.902321,-31.069129,0.335276,-0.254610,0.841564,-0.338424,-0.475869,0.244820,0.000000
30.600000,331.057740,22.387924,1481.232716,0.226401,3.759951,-31.043277,0.335276,-0.254610,0.841564,-0.338424,-0.475869,0.244820,0.000000
