# Time (s), X (m), Y (m), Z (m), Vx (m/s), Vy (m/s), Vz (m/s), e0, e1, e2, e3, ω1 (rad/s), ω2 (rad/s), ω3 (rad/s)
0.000000,0.000000,0.000000,1471.466078,0.000000,0.000000,0.000000,0.704416,-0.061628,0.061628,-0.704416,0.000000,0.000000,0.000000
0.600000,0.670577,0.000002,1475.268495,2.473449,0.000255,13.947013,0.704416,-0.061627,0.061630,-0.704416,-0.000055,0.000574,0.000000
1.200000,3.231821,-0.008434,1487.974305,6.041174,-0.079583,28.222268,0.703772,-0.057232,0.068721,-0.704774,-0.017981,0.058108,0.000000
1.800000,7.917551,-0.228047,1508.877988,9.612484,-0.817955,41.235663,0.700988,-0.047086,0.095831,-0.705135,-0.065793,0.110215,0.000000
2.400000,14.863005,-1.217255,1537.200855,13.653307,-2.654106,52.959372,0.696471,-0.043674,0.134466,-0.703519,-0.090532,0.068149,0.000000
3.000000,24.400734,-3.513802,1572.067437,18.146191,-4.969601,62.860814,0.694869,-0.054131,0.151800,-0.700845,-0.032170,-0.025826,0.000000
3.600000,36.589325,-7.085289,1612.250703,22.409462,-6.867550,70.823720,0.695222,-0.059160,0.151734,-0.700102,-0.012796,0.027376,0.000000
4.200000,50.941613,-11.620107,1655.880722,24.933493,-8.053956,72.936173,0.691743,-0.055662,0.172316,-0.699071,-0.062301,0.056592,0.000000
4.800000,66.095807,-16.559323,1698.437808,25.308255,-8.263468,68.124543,0.689664,-0.061588,0.187659,-0.696674,-0.033393,0.000004,0.000000
5.400000,81.264337,-21.505353,1737.505321,25.250854,-8.220457,62.106367,0.688045,-0.064444,0.197843,-0.695198,-0.041707,0.043764,0.000000
6.000000,96.396009,-26.426186,1772.970302,25.189711,-8.186435,56.112653,0.683368,-0.064959,0.221760,-0.692539,-0.072111,0.055443,0.000000
6.600000,111.494754,-31.331862,1804.843170,25.141142,-8.165532,50.133098,0.678956,-0.070956,0.245338,-0.688327,-0.069016,0.031789,0.000000
7.200000,126.565990,-36.222866,1833.134380,25.095970,-8.136184,44.174887,0.674712,-0.077682,0.266637,-0.683838,-0.072852,0.045004,0.000000
7.800000,141.609475,-41.094698,1857.857306,25.048955,-8.103905,38.237796,0.667646,-0.082577,0.295918,-0.678131,-0.098591,0.072503,0.000000
8.400000,156.625248,-45.948931,1879.022544,25.004365,-8.078032,32.314953,0.657237,-0.088951,0.334534,-0.669488,-0.126201,0.083511,0.000000
9.000000,171.615657,-50.789218,1896.637519,24.964375,-8.056537,26.403599,0.644281,-0.098890,0.378516,-0.657151,-0.148557,0.086865,0.000000
9.600000,186.583178,-55.616746,1910.709407,24.927809,-8.035054,20.504926,0.628129,-0.111657,0.427263,-0.640649,-0.173456,0.098603,0.000000
10.200000,201.529500,-60.431154,1921.246117,24.893660,-8.013000,14.619608,0.606420,-0.126118,0.483336,-0.618654,-0.207318,0.121571,0.000000
10.800000,216.456122,-65.232607,1928.255335,24.862298,-7.992243,8.746203,0.576239,-0.142002,0.548705,-0.588817,-0.249528,0.149928,0.000000
11.400000,231.365030,-70.022492,1931.742851,24.834805,-7.974694,2.881456,0.535171,-0.159434,0.622421,-0.548418,-0.293879,0.176397,0.000000
12.000000,246.258770,-74.803035,1931.712966,24.811666,-7.961071,-2.979805,0.482369,-0.178047,0.699916,-0.495715,-0.329157,0.193648,0.000000
12.600000,261.139484,-79.576269,1928.165974,24.789100,-7.948861,-8.843123,0.420301,-0.196460,0.773268,-0.432223,-0.338129,0.192867,0.000000
13.200000,276.006543,-84.342241,1921.097219,24.739532,-7.920560,-14.694135,0.357038,-0.212401,0.832899,-0.365635,-0.301479,0.165643,0.000000
13.800000,289.829835,-88.478092,1911.581660,21.462332,-5.942904,-16.993291,0.357076,-0.212392,0.832866,-0.365676,-0.301518,0.165668,0.000000
14.400000,301.873428,-91.543977,1900.741083,18.762881,-4.327038,-19.110001,0.357076,-0.212392,0.832866,-0.365676,-0.301518,0.165668,0.000000
15.000000,312.426023,-93.721731,1888.689544,16.468502,-2.968013,-21.027267,0.357076,-0.212392,0.832866,-0.365676,-0.301518,0.165668,0.000000
15.600000,321.696634,-95.144861,1875.550557,14.477934,-1.804592,-22.733639,0.357076,-0.212392,0.832866,-0.365676,-0.301518,0.165668,0.000000
16.200000,329.847659,-95.918743,1861.452215,12.728394,-0.798947,-24.225063,0.357076,-0.212392,0.832866,-0.365676,-0.301518,0.165668,0.000000
16.800000,337.011073,-96.130426,1846.522537,11.180110,0.072899,-25.505947,0.357076,-0.212392,0.832866,-0.365676,-0.301518,0.165668,0.000000
17.400000,343.298914,-95.854897,1830.884740,9.806607,0.827069,-26.588107,0.357076,-0.212392,0.832866,-0.365676,-0.301518,0.165668,0.000000
18.000000,348.809997,-95.159012,1814.653146,8.588162,1.475826,-27.488609,0.357076,-0.212392,0.832866,-0.365676,-0.301518,0.165668,0.000000
18.600000,353.632506,-94.102933,1797.930774,7.508856,2.029341,-28.227588,0.357076,-0.212392,0.832866,-0.365676,-0.301518,0.165668,0.000000
19.200000,357.845665,-92.741021,1780.808157,6.554856,2.496690,-28.826276,0.357076,-0.212392,0.832866,-0.365676,-0.301518,0.165668,0.000000
19.800000,361.520590,-91.122258,1763.362770,5.713572,2.886302,-29.305416,0.357076,-0.212392,0.832866,-0.365676,-0.301518,0.165668,0.000000
20.400000,364.721518,-89.290984,1745.660751,4.973280,3.206141,-29.684440,0.357076,-0.212392,0.832866,-0.365676,-0.301518,0.165668,0.000000
21.000000,367.505863,-87.286880,1727.757067,4.323037,3.463710,-29.980745,0.357076,-0.212392,0.832866,-0.365676,-0.301518,0.165668,0.000000
21.600000,369.924496,-85.145135,1709.696569,3.752728,3.665993,-30.209452,0.357076,-0.212392,0.832866,-0.365676,-0.301518,0.165668,0.000000
22.200000,372.023076,-82.897324,1691.516633,3.252972,3.819490,-30.383691,0.357076,-0.212392,0.832866,-0.365676,-0.301518,0.165668,0.000000
22.800000,373.840925,-80.570633,1673.246041,2.815356,3.930046,-30.514083,0.357076,-0.212392,0.832866,-0.365676,-0.301518,0.165668,0.000000
23.400000,375.412998,-78.189209,1654.908110,2.432204,4.003004,-30.609517,0.357076,-0.212392,0.832866,-0.365676,-0.301518,0.165668,0.000000
24.000000,376.769604,-75.773948,1636.520963,2.096704,4.043095,-30.677054,0.357076,-0.212392,0.832866,-0.365676,-0.301518,0.165668,0.000000
24.600000,377.937471,-73.343300,1618.099664,1.802769,4.054569,-30.722697,0.357076,-0.212392,0.832866,-0.365676,-0.301518,0.165668,0.000000
25.200000,378.940180,-70.913505,1599.656565,1.544959,4.041221,-30.751483,0.357076,-0.212392,0.832866,-0.365676,-0.301518,0.165668,0.000000
25.800000,379.797874,-68.498206,1581.200439,1.318536,4.006257,-30.767062,0.357076,-0.212392,0.832866,-0.365676,-0.301518,0.165668,0.000000
26.400000,380.528026,-66.109665,1562.738238,1.119373,3.952671,-30.772336,0.357076,-0.212392,0.832866,-0.365676,-0.301518,0.165668,0.000000
27.000000,381.145644,-63.758766,1544.275477,0.943915,3.883205,-30.769616,0.357076,-0.212392,0.832866,-0.365676,-0.301518,0.165668,0.000000
27.600000,381.664662,-61.453302,1525.815992,0.788751,3.799458,-30.760691,0.357076,-0.212392,0.832866,-0.365676,-0.301518,0.165668,0.000000
28.200000,382.097650,-59.200253,1507.362949,0.650793,3.702866,-30.747074,0.357076,-0.212392,0.832866,-0.365676,-0.301518,0.165668,0.000000
28.800000,382.450393,-57.010038,1488.919616,0.528865,3.597149,-30.729810,0.357076,-0.212392,0.832866,-0.365676,-0.301518,0.165668,0.000000
