# Time (s), X (m), Y (m), Z (m), Vx (m/s), Vy (m/s), Vz (m/s), e0, e1, e2, e3, ω1 (rad/s), ω2 (rad/s), ω3 (rad/s)
0.000000,0.000000,0.000000,1471.466078,0.000000,0.000000,0.000000,0.704416,-0.061628,0.061628,-0.704416,0.000000,0.000000,0.000000
0.600000,0.653148,0.000000,1475.170245,2.397285,0.000012,13.591769,0.704416,-0.061628,0.061628,-0.704416,-0.000003,0.000027,0.000000
1.200000,3.149770,-0.007666,1487.551174,5.899881,-0.073904,27.495808,0.703798,-0.057384,0.068446,-0.704763,-0.017329,0.056577,0.000000
1.800000,7.729295,-0.215441,1507.913377,9.397223,-0.778194,40.161797,0.701075,-0.047326,0.095044,-0.705139,-0.064680,0.109674,0.000000
2.400000,14.518774,-1.163830,1535.494376,13.346556,-2.558507,51.565148,0.696494,-0.043464,0.134181,-0.703565,-0.092812,0.073707,0.000000
3.000000,23.846855,-3.395431,1569.433836,17.761341,-4.860210,61.167558,0.694552,-0.053596,0.153866,-0.700750,-0.038376,-0.021795,0.000000
3.600000,35.794119,-6.908322,1608.516934,21.994154,-6.777099,68.851036,0.694993,-0.059760,0.153808,-0.699826,-0.010460,0.019575,0.000000
4.200000,49.892144,-11.384211,1650.912921,24.499010,-7.945336,70.821772,0.691656,-0.056094,0.173181,-0.698909,-0.062419,0.062980,0.000000
4.800000,64.783060,-16.256992,1692.193573,24.869511,-8.154371,65.999100,0.689015,-0.061444,0.191395,-0.696313,-0.040906,0.003410,0.000000
5.400000,79.690071,-21.139561,1729.988550,24.818142,-8.116905,59.989947,0.687587,-0.065749,0.201173,-0.694572,-0.039023,0.035892,0.000000
6.000000,94.563250,-25.997809,1764.186778,24.759855,-8.080707,54.006898,0.682974,-0.066080,0.224271,-0.692014,-0.073167,0.061940,0.000000
6.600000,109.404200,-30.839871,1794.799308,24.711937,-8.060405,48.037111,0.677692,-0.071323,0.251026,-0.687483,-0.078389,0.040209,0.000000
7.200000,124.218806,-35.669256,1821.834892,24.670187,-8.035936,42.085049,0.672977,-0.079165,0.274490,-0.682268,-0.078377,0.042043,0.000000
7.800000,139.008099,-40.481759,1845.305569,24.627209,-8.005638,36.153665,0.666012,-0.085481,0.303416,-0.676062,-0.099883,0.069616,0.000000
8.400000,153.771562,-45.276787,1865.222381,24.584760,-7.978807,30.237800,0.655059,-0.092036,0.342819,-0.667010,-0.131651,0.090277,0.000000
9.000000,168.510538,-50.057429,1881.593126,24.545832,-7.957307,24.333081,0.640340,-0.101685,0.390391,-0.653621,-0.161229,0.099088,0.000000
9.600000,183.227315,-54.825951,1894.424223,24.510652,-7.937856,18.439123,0.621704,-0.114915,0.443906,-0.635001,-0.190188,0.108870,0.000000
10.200000,197.923940,-59.582862,1903.722405,24.478604,-7.918528,12.556777,0.597380,-0.130788,0.504003,-0.609928,-0.224388,0.127614,0.000000
10.800000,212.602295,-64.328331,1909.494547,24.449866,-7.899964,6.685533,0.564458,-0.148418,0.572001,-0.576346,-0.265348,0.153985,0.000000
11.400000,227.264617,-69.063307,1911.747014,24.425282,-7.883812,0.822545,0.520132,-0.167206,0.647066,-0.531802,-0.307921,0.181223,0.000000
12.000000,241.913492,-73.789589,1910.481355,24.404935,-7.871029,-5.037978,0.463413,-0.186298,0.724536,-0.474958,-0.339400,0.199300,0.000000
12.600000,256.550826,-78.508970,1905.699234,24.396037,-7.866406,-10.914736,0.397516,-0.204181,0.796022,-0.408154,-0.338975,0.195190,0.000000
13.200000,271.043226,-83.141671,1897.524432,23.165454,-7.125829,-15.548786,0.355161,-0.214003,0.833832,-0.364398,-0.311807,0.175548,0.000000
13.800000,284.029908,-86.869148,1887.496039,20.218663,-5.358522,-17.845940,0.355159,-0.214003,0.833834,-0.364396,-0.311805,0.175547,0.000000
14.400000,295.398644,-89.630358,1876.149926,17.742955,-3.887160,-19.939458,0.355159,-0.214003,0.833834,-0.364396,-0.311805,0.175547,0.000000
15.000000,305.389870,-91.577345,1863.611700,15.609370,-2.633849,-21.817864,0.355159,-0.214003,0.833834,-0.364396,-0.311805,0.175547,0.000000
15.600000,314.183009,-92.825396,1850.012899,13.740439,-1.552050,-23.474316,0.355159,-0.214003,0.833834,-0.364396,-0.311805,0.175547,0.000000
16.200000,321.921558,-93.468254,1835.486764,12.087600,-0.612663,-24.909730,0.355159,-0.214003,0.833834,-0.364396,-0.311805,0.175547,0.000000
16.800000,328.725180,-93.585359,1820.163599,10.619460,0.203207,-26.132951,0.355159,-0.214003,0.833834,-0.364396,-0.311805,0.175547,0.000000
17.400000,334.697625,-93.246520,1804.166551,9.314333,0.908818,-27.159235,0.355159,-0.214003,0.833834,-0.364396,-0.311805,0.175547,0.000000
18.000000,339.931563,-92.514680,1787.608057,8.155276,1.514805,-28.008003,0.355159,-0.214003,0.833834,-0.364396,-0.311805,0.175547,0.000000
18.600000,344.510305,-91.446827,1770.588236,7.128042,2.030370,-28.700740,0.355159,-0.214003,0.833834,-0.364396,-0.311805,0.175547,0.000000
19.200000,348.508981,-90.094598,1753.194048,6.219842,2.463986,-29.259205,0.355159,-0.214003,0.833834,-0.364396,-0.311805,0.175547,0.000000
19.800000,351.995195,-88.504592,1735.499380,5.418817,2.823653,-29.704121,0.355159,-0.214003,0.833834,-0.364396,-0.311805,0.175547,0.000000
20.400000,355.030090,-86.719020,1717.566979,4.713813,3.116984,-30.054558,0.355159,-0.214003,0.833834,-0.364396,-0.311805,0.175547,0.000000
21.000000,357.668199,-84.775566,1699.448517,4.094396,3.351157,-30.327312,0.355159,-0.214003,0.833834,-0.364396,-0.311805,0.175547,0.000000
21.600000,359.957910,-82.707680,1681.186087,3.550905,3.532857,-30.536861,0.355159,-0.214003,0.833834,-0.364396,-0.311805,0.175547,0.000000
22.200000,361.942595,-80.545330,1662.814627,3.074393,3.668287,-30.695664,0.355159,-0.214003,0.833834,-0.364396,-0.311805,0.175547,0.000000
22.800000,363.659497,-78.314236,1644.360756,2.656855,3.763013,-30.813685,0.355159,-0.214003,0.833834,-0.364396,-0.311805,0.175547,0.000000
23.400000,365.141754,-76.037258,1625.846080,2.290999,3.822106,-30.899226,0.355159,-0.214003,0.833834,-0.364396,-0.311805,0.175547,0.000000
24.000000,366.418200,-73.734255,1607.287477,1.970346,3.850075,-30.958903,0.355159,-0.214003,0.833834,-0.364396,-0.311805,0.175547,0.000000
24.600000,367.514164,-71.422673,1588.698958,1.689127,3.850926,-30.998342,0.355159,-0.214003,0.833834,-0.364396,-0.311805,0.175547,0.000000
25.200000,368.452045,-69.117902,1570.091995,1.442177,3.828251,-31.022245,0.355159,-0.214003,0.833834,-0.364396,-0.311805,0.175547,0.000000
25.800000,369.250898,-66.832904,1551.474634,1.225039,3.785186,-31.033965,0.355159,-0.214003,0.833834,-0.364396,-0.311805,0.175547,0.000000
26.400000,369.927361,-64.579246,1532.853249,1.033767,3.724406,-31.036173,0.355159,-0.214003,0.833834,-0.364396,-0.311805,0.175547,0.000000
27.000000,370.495894,-62.367090,1514.232890,0.864898,3.648204,-31.031006,0.355159,-0.214003,0.833834,-0.364396,-0.311805,0.175547,0.000000
27.600000,370.969257,-60.204128,1495.617149,0.715460,3.559010,-31.020118,0.355159,-0.214003,0.833834,-0.364396,-0.311805,0.175547,0.000000
28.200000,371.358206,-58.097522,1477.009208,0.583246,3.460867,-31.004944,0.355159,-0.214003,0.833834,-0.364396,-0.311805,0.175547,0.000000
