# Time (s), X (m), Y (m), Z (m), Vx (m/s), Vy (m/s), Vz (m/s), e0, e1, e2, e3, ω1 (rad/s), ω2 (rad/s), ω3 (rad/s)
0.000000,0.000000,0.000000,1471.466078,0.000000,0.000000,0.000000,0.704416,-0.061628,0.061628,-0.704416,0.000000,0.000000,0.000000
0.550000,2.946364,0.001124,1487.799624,11.466399,-0.013366,62.262127,0.704206,-0.061128,0.064000,-0.704458,-0.022683,0.032334,0.000000
1.100000,13.184000,-0.272804,1541.713791,26.186236,-1.416211,133.871222,0.702343,-0.060925,0.083611,-0.704281,-0.046946,0.026925,0.000000
1.650000,31.832795,-1.718416,1633.957876,41.369397,-3.692639,200.856749,0.702407,-0.061288,0.083103,-0.704246,-0.022288,0.037001,0.000000
2.200000,56.885463,-4.137229,1753.858425,46.422567,-4.536426,219.439541,0.701904,-0.060597,0.087818,-0.704235,-0.017967,0.027441,0.000000
2.750000,82.251757,-6.601208,1872.291512,45.818725,-4.408839,211.272485,0.701440,-0.059910,0.092016,-0.704220,-0.015008,0.021649,0.000000
3.300000,107.297011,-8.991569,1986.303179,45.257472,-4.274241,203.356417,0.700971,-0.059261,0.096158,-0.704189,-0.011742,0.017632,0.000000
3.850000,132.043733,-11.306331,2096.024453,44.739753,-4.145666,195.664984,0.700564,-0.058877,0.099706,-0.704132,-0.002461,0.001793,0.000000
4.400000,156.514922,-13.549076,2201.572933,44.256329,-4.013727,188.179033,0.700311,-0.058999,0.101961,-0.704051,-0.003782,0.003997,0.000000
4.950000,180.730651,-15.721570,2303.055869,43.808167,-3.887289,180.878994,0.700051,-0.059199,0.104269,-0.703955,-0.006305,0.006256,0.000000
5.500000,204.709772,-17.826692,2400.570811,43.392921,-3.767025,173.747644,0.699781,-0.059441,0.106637,-0.703848,-0.008360,0.006992,0.000000
6.050000,228.469058,-19.867003,2494.205908,43.008051,-3.652485,166.768205,0.699480,-0.059715,0.109244,-0.703724,-0.008443,0.006140,0.000000
6.600000,252.023727,-21.845066,2584.041436,42.649954,-3.541944,159.928652,0.699134,-0.060087,0.112205,-0.703571,-0.008359,0.006149,0.000000
7.150000,275.386296,-23.767593,2670.151240,42.308056,-3.452297,153.218269,0.698949,-0.062722,0.114500,-0.703155,-0.016631,-0.008391,0.000000
7.700000,298.568785,-25.639030,2752.602915,41.992708,-3.358948,146.625182,0.698733,-0.065473,0.116973,-0.702711,-0.014502,-0.000656,0.000000
8.250000,321.581145,-27.465675,2831.458942,41.693582,-3.280696,140.141248,0.698554,-0.069387,0.119405,-0.702104,-0.015428,-0.000732,0.000000
8.800000,344.434348,-29.250184,2906.776868,41.410874,-3.211862,133.758387,0.698258,-0.072667,0.122432,-0.701545,-0.018595,-0.003631,0.000000
9.350000,367.136846,-30.998689,2978.610176,41.146570,-3.146742,127.468590,0.697953,-0.076687,0.125583,-0.700863,-0.018431,-0.000047,0.000000
9.900000,389.697772,-32.714086,3047.008264,40.895652,-3.092281,121.265588,0.697567,-0.080801,0.129188,-0.700130,-0.021628,-0.002697,0.000000
10.450000,412.125167,-34.400372,3112.016939,40.660798,-3.040626,115.142462,0.697114,-0.085291,0.133152,-0.699305,-0.022582,-0.000265,0.000000
11.000000,434.426818,-36.060476,3173.678635,40.438355,-2.997001,109.093779,0.696570,-0.090127,0.137598,-0.698379,-0.025728,-0.001752,0.000000
11.550000,456.609490,-37.697905,3232.032744,40.227491,-2.958435,103.114077,0.695937,-0.095783,0.142540,-0.697266,-0.030126,-0.002418,0.000000
12.100000,478.679544,-39.315462,3287.115624,40.029599,-2.924018,97.197319,0.695172,-0.102281,0.148133,-0.695939,-0.032422,-0.001883,0.000000
12.650000,500.643976,-40.915114,3338.960582,39.842485,-2.893797,91.339329,0.694250,-0.109023,0.154318,-0.694490,-0.035888,-0.001400,0.000000
13.200000,522.508095,-42.499434,3387.598866,39.665323,-2.867840,85.535770,0.693127,-0.116640,0.161342,-0.692776,-0.040593,-0.001510,0.000000
13.750000,544.277846,-44.070213,3433.059045,39.499006,-2.844593,79.781997,0.691764,-0.124946,0.169220,-0.690807,-0.044626,-0.000687,0.000000
14.300000,565.958610,-45.629096,3475.367585,39.341559,-2.824613,74.074681,0.690099,-0.134040,0.178122,-0.688527,-0.050479,-0.000341,0.000000
14.850000,587.555213,-47.177757,3514.548970,39.193073,-2.807240,68.409872,0.688048,-0.144271,0.188255,-0.685810,-0.057184,0.000058,0.000000
15.400000,609.072610,-48.717408,3550.625557,39.053400,-2.791814,62.783988,0.685517,-0.155653,0.199774,-0.682589,-0.064480,0.000948,0.000000
15.950000,630.515364,-50.249125,3583.617938,38.921493,-2.778402,57.194104,0.682371,-0.168342,0.212923,-0.678744,-0.073563,0.001803,0.000000
16.500000,651.887583,-51.773980,3613.545102,38.796878,-2.766788,51.637239,0.678426,-0.182707,0.228020,-0.674063,-0.084640,0.002614,0.000000
17.050000,673.193244,-53.292824,3640.424382,38.679423,-2.756474,46.110435,0.673448,-0.199022,0.245386,-0.668312,-0.097472,0.003775,0.000000
17.600000,694.436169,-54.806292,3664.271589,38.568658,-2.747217,40.611150,0.667126,-0.217511,0.265378,-0.661211,-0.112518,0.005337,0.000000
18.150000,715.619882,-56.314945,3685.101261,38.464013,-2.738957,35.137168,0.659047,-0.238497,0.288412,-0.652368,-0.130499,0.007145,0.000000
18.700000,736.747646,-57.819308,3702.926729,38.365173,-2.731586,29.686396,0.648668,-0.262382,0.314935,-0.641242,-0.151808,0.009178,0.000000
19.250000,757.822645,-59.319812,3717.760173,38.272169,-2.724883,24.256753,0.635293,-0.289506,0.345339,-0.627152,-0.176379,0.011597,0.000000
19.800000,778.848141,-60.816772,3729.612657,38.185215,-2.718681,18.846197,0.618074,-0.320031,0.379875,-0.609302,-0.203899,0.014495,0.000000
20.350000,799.827568,-62.310440,3738.494087,38.104734,-2.712904,13.452522,0.596039,-0.353881,0.418527,-0.586794,-0.233530,0.017826,0.000000
20.900000,820.764648,-63.801039,3744.413020,38.031331,-2.707521,8.072906,0.568216,-0.390592,0.460825,-0.558745,-0.263296,0.021420,0.000000
21.450000,841.663391,-65.288777,3747.376185,37.965319,-2.702491,2.703363,0.533904,-0.429118,0.505608,-0.524552,-0.289520,0.024953,0.000000
22.000000,862.527685,-66.773818,3747.386510,37.905835,-2.697683,-2.661635,0.493154,-0.467691,0.550855,-0.484365,-0.306329,0.027916,0.000000
22.550000,883.360206,-68.256214,3744.447024,37.841243,-2.692247,-8.023148,0.447483,-0.503854,0.593713,-0.439771,-0.306172,0.029527,0.000000
23.100000,904.163960,-69.736094,3738.553458,38.127134,-2.713254,-13.623627,0.398222,-0.536146,0.632483,-0.392187,-0.280395,0.028832,0.000000
23.650000,923.764301,-71.123899,3730.522723,32.426273,-2.276819,-14.903688,0.388948,-0.541612,0.639105,-0.383287,-0.272546,0.028405,0.000000
24.200000,940.111576,-72.259714,3722.171186,27.301082,-1.873361,-15.512603,0.388948,-0.541612,0.639105,-0.383287,-0.272546,0.028405,0.000000
24.750000,954.037384,-73.201518,3713.423254,23.508942,-1.563180,-16.318535,0.388948,-0.541612,0.639105,-0.383287,-0.272546,0.028405,0.000000
25.300000,966.122600,-73.989501,3704.207778,20.548737,-1.309646,-17.197151,0.388948,-0.541612,0.639105,-0.383287,-0.272546,0.028405,0.000000
25.850000,976.742503,-74.648732,3694.506985,18.146589,-1.092449,-18.073497,0.388948,-0.541612,0.639105,-0.383287,-0.272546,0.028405,0.000000
26.400000,986.156527,-75.195630,3684.335899,16.143325,-0.899616,-18.901447,0.388948,-0.541612,0.639105,-0.383287,-0.272546,0.028405,0.000000
26.950000,994.555395,-75.641419,3673.729258,14.442222,-0.723807,-19.654053,0.388948,-0.541612,0.639105,-0.383287,-0.272546,0.028405,0.000000
27.500000,1002.086877,-75.994073,3662.732723,12.981527,-0.560366,-20.318115,0.388948,-0.541612,0.639105,-0.383287,-0.272546,0.028405,0.000000
28.050000,1008.871213,-76.259510,3651.396300,11.719002,-0.406209,-20.889968,0.388948,-0.541612,0.639105,-0.383287,-0.272546,0.028405,0.000000
28.600000,1015.008568,-76.442223,3639.770132,10.624518,-0.259269,-21.372582,0.388948,-0.541612,0.639105,-0.383287,-0.272546,0.028405,0.000000
29.150000,1020.584718,-76.545761,3627.901553,9.674816,-0.118094,-21.772922,0.388948,-0.541612,0.639105,-0.383287,-0.272546,0.028405,0.000000
29.700000,1025.673916,-76.572988,3615.833329,8.850994,0.018373,-22.100032,0.388948,-0.541612,0.639105,-0.383287,-0.272546,0.028405,0.000000
30.250000,1030.341039,-76.526270,3603.603226,8.137072,0.150926,-22.363777,0.388948,-0.541612,0.639105,-0.383287,-0.272546,0.028405,0.000000
30.800000,1034.642312,-76.407572,3591.243131,7.519234,0.280178,-22.573745,0.388948,-0.541612,0.639105,-0.383287,-0.272546,0.028405,0.000000
31.350000,1038.627606,-76.218592,3578.780329,6.985117,0.406636,-22.738889,0.388948,-0.541612,0.639105,-0.383287,-0.272546,0.028405,0.000000
31.900000,1042.339682,-75.960734,3566.237172,6.524076,0.530691,-22.867280,0.388948,-0.541612,0.639105,-0.383287,-0.272546,0.028405,0.000000
32.450000,1045.815935,-75.635219,3553.631918,6.126638,0.652674,-22.965832,0.388948,-0.541612,0.639105,-0.383287,-0.272546,0.028405,0.000000
33.000000,1049.089165,-75.243116,3540.979386,5.784345,0.772873,-23.040367,0.388948,-0.541612,0.639105,-0.383287,-0.272546,0.028405,0.000000
33.550000,1052.187581,-74.785340,3528.291272,5.489823,0.891526,-23.095673,0.388948,-0.541612,0.639105,-0.383287,-0.272546,0.028405,0.000000
34.100000,1055.135639,-74.262684,3515.577025,5.236615,1.008839,-23.135735,0.388948,-0.541612,0.639105,-0.383287,-0.272546,0.028405,0.000000
34.650000,1057.954545,-73.675836,3502.844213,5.019060,1.124986,-23.163830,0.388948,-0.541612,0.639105,-0.383287,-0.272546,0.028405,0.000000
35.200000,1060.662413,-73.025390,3490.098610,4.832276,1.240117,-23.182517,0.388948,-0.541612,0.639105,-0.383287,-0.272546,0.028405,0.000000
35.750000,1063.274978,-72.311870,3477.344804,4.671995,1.354363,-23.193859,0.388948,-0.541612,0.639105,-0.383287,-0.272546,0.028405,0.000000
36.300000,1065.805862,-71.535733,3464.586392,4.534502,1.467837,-23.199497,0.388948,-0.541612,0.639105,-0.383287,-0.272546,0.028405,0.000000
36.850000,1068.266604,-70.697375,3451.826121,4.416633,1.580636,-23.200708,0.388948,-0.541612,0.639105,-0.383287,-0.272546,0.028405,0.000000
37.400000,1070.667296,-69.797144,3439.066179,4.315613,1.692844,-23.198518,0.388948,-0.541612,0.639105,-0.383287,-0.272546,0.028405,0.000000
37.950000,1073.016488,-68.835343,3426.308194,4.229082,1.804533,-23.193703,0.388948,-0.541612,0.639105,-0.383287,-0.272546,0.028405,0.000000
38.500000,1075.321591,-67.812242,3413.553440,4.154989,1.915767,-23.186875,0.388948,-0.541612,0.639105,-0.383287,-0.272546,0.028405,0.000000
39.050000,1077.589039,-66.728077,3400.802909,4.091552,2.026599,-23.178514,0.388948,-0.541612,0.639105,-0.383287,-0.272546,0.028405,0.000000
39.600000,1079.824108,-65.583051,3388.057292,4.037306,2.137077,-23.168961,0.388948,-0.541612,0.639105,-0.383287,-0.272546,0.028405,0.000000
40.150000,1082.031584,-64.377352,3375.317166,3.990919,2.247241,-23.158506,0.388948,-0.541612,0.639105,-0.383287,-0.272546,0.028405,0.000000
40.700000,1084.215393,-63.111140,3362.582960,3.951299,2.357125,-23.147367,0.388948,-0.541612,0.639105,-0.383287,-0.272546,0.028405,0.000000
41.250000,1086.379075,-61.784562,3349.855035,3.917461,2.466761,-23.135728,0.388948,-0.541612,0.639105,-0.383287,-0.272546,0.028405,0.000000
41.800000,1088.525520,-60.397745,3337.133632,3.888599,2.576173,-23.123718,0.388948,-0.541612,0.639105,-0.383287,-0.272546,0.028405,0.000000
42.350000,1090.657318,-58.950808,3324.418937,3.863992,2.685386,-23.111437,0.388948,-0.541612,0.639105,-0.383287,-0.272546,0.028405,0.000000
42.900000,1092.776596,-57.443855,3311.711067,3.843044,2.794416,-23.098949,0.388948,-0.541612,0.639105,-0.383287,-0.272546,0.028405,0.000000
43.450000,1094.885252,-55.876983,3299.010107,3.825222,2.903279,-23.086305,0.388948,-0.541612,0.639105,-0.383287,-0.272546,0.028405,0.000000
44.000000,1096.984849,-54.250274,3286.316126,3.810100,3.011997,-23.073548,0.388948,-0.541612,0.639105,-0.383287,-0.272546,0.028405,0.000000
44.550000,1099.076769,-52.563806,3273.629180,3.797300,3.120587,-23.060714,0.388948,-0.541612,0.639105,-0.383287,-0.272546,0.028405,0.000000
45.100000,1101.162145,-50.817654,3260.949305,3.786487,3.229047,-23.047829,0.388948,-0.541612,0.639105,-0.383287,-0.272546,0.028405,0.000000
45.650000,1103.241987,-49.011893,3248.276525,3.777348,3.337361,-23.034912,0.388948,-0.541612,0.639105,-0.383287,-0.272546,0.028405,0.000000
46.200000,1105.317248,-47.146590,3235.610862,3.769612,3.445532,-23.021982,0.388948,-0.541612,0.639105,-0.383287,-0.272546,0.028405,0.000000
46.750000,1107.388663,-45.221782,3222.952318,3.763160,3.553639,-23.009054,0.388948,-0.541612,0.639105,-0.383287,-0.272546,0.028405,0.000000
47.300000,1109.456916,-43.237500,3210.300896,3.757909,3.661774,-22.996140,0.388948,-0.541612,0.639105,-0.383287,-0.272546,0.028405,0.000000
47.850000,1111.522557,-41.193810,3197.656590,3.753647,3.769898,-22.983245,0.388948,-0.541612,0.639105,-0.383287,-0.272546,0.028405,0.000000
48.400000,1113.585893,-39.090844,3185.019390,3.749917,3.877712,-22.970351,0.388948,-0.541612,0.639105,-0.383287,-0.272546,0.028405,0.000000
48.950000,1115.647178,-36.928760,3172.389282,3.746220,3.984877,-22.957440,0.388948,-0.541612,0.639105,-0.383287,-0.272546,0.028405,0.000000
49.500000,1117.706152,-34.708125,3159.766280,3.741751,4.090779,-22.944482,0.388948,-0.541612,0.639105,-0.383287,-0.272546,0.028405,0.000000
50.050000,1119.762042,-32.429924,3147.150419,3.735394,4.194520,-22.931436,0.388948,-0.541612,0.639105,-0.383287,-0.272546,0.028405,0.000000
50.600000,1121.813974,-30.095213,3134.541740,3.726231,4.295368,-22.918271,0.388948,-0.541612,0.639105,-0.383287,-0.272546,0.028405,0.000000
51.150000,1123.860455,-27.705513,3121.940316,3.715153,4.394157,-22.905046,0.388948,-0.541612,0.639105,-0.383287,-0.272546,0.028405,0.000000
51.700000,1125.900409,-25.261948,3109.346183,3.702902,4.491575,-22.891800,0.388948,-0.541612,0.639105,-0.383287,-0.272546,0.028405,0.000000
52.250000,1127.933300,-22.765174,3096.759341,3.689473,4.587661,-22.878532,0.388948,-0.541612,0.639105,-0.383287,-0.272546,0.028405,0.000000
52.800000,1129.958523,-20.215877,3084.179799,3.675084,4.682639,-22.865254,0.388948,-0.541612,0.639105,-0.383287,-0.272546,0.028405,0.000000
53.350000,1131.975613,-17.614598,3071.607561,3.659859,4.776645,-22.851973,0.388948,-0.541612,0.639105,-0.383287,-0.272546,0.028405,0.000000
53.900000,1133.984126,-14.961853,3059.042626,3.643920,4.869814,-22.838694,0.388948,-0.541612,0.639105,-0.383287,-0.272546,0.028405,0.000000
54.450000,1135.983725,-12.258043,3046.484992,3.627368,4.962253,-22.825424,0.388948,-0.541612,0.639105,-0.383287,-0.272546,0.028405,0.000000
55.000000,1137.974169,-9.503456,3033.934654,3.610270,5.054036,-22.812165,0.388948,-0.541612,0.639105,-0.383287,-0.272546,0.028405,0.000000
55.550000,1139.955163,-6.698450,3021.391604,3.592711,5.145255,-22.798920,0.388948,-0.541612,0.639105,-0.383287,-0.272546,0.028405,0.000000
56.100000,1141.926399,-3.843402,3008.855834,3.574780,5.236005,-22.785694,0.388948,-0.541612,0.639105,-0.383287,-0.272546,0.028405,0.000000
56.650000,1143.887599,-0.938651,2996.327334,3.556556,5.326374,-22.772491,0.388948,-0.541612,0.639105,-0.383287,-0.272546,0.028405,0.000000
57.200000,1145.838628,2.015619,2983.806092,3.538080,5.416405,-22.759312,0.388948,-0.541612,0.639105,-0.383287,-0.272546,0.028405,0.000000
57.750000,1147.779388,5.019271,2971.292095,3.519380,5.506128,-22.746156,0.388948,-0.541612,0.639105,-0.383287,-0.272546,0.028405,0.000000
58.300000,1149.709786,8.072170,2958.785329,3.500485,5.595576,-22.733026,0.388948,-0.541612,0.639105,-0.383287,-0.272546,0.028405,0.000000
58.850000,1151.629746,11.174199,2946.285779,3.481417,5.684772,-22.719920,0.388948,-0.541612,0.639105,-0.383287,-0.272546,0.028405,0.000000
59.400000,1153.539194,14.325246,2933.793430,3.462198,5.773740,-22.706840,0.388948,-0.541612,0.639105,-0.383287,-0.272546,0.028405,0.000000
59.950000,1155.438061,17.525198,2921.308268,3.442851,5.862505,-22.693785,0.388948,-0.541612,0.639105,-0.383287,-0.272546,0.028405,0.000000
60.500000,1157.326276,20.773942,2908.830276,3.423397,5.951090,-22.680755,0.388948,-0.541612,0.639105,-0.383287,-0.272546,0.028405,0.000000
61.050000,1159.203773,24.071359,2896.359435,3.403856,6.039517,-22.667752,0.388948,-0.541612,0.639105,-0.383287,-0.272546,0.028405,0.000000
61.600000,1161.070488,27.417338,2883.895729,3.384250,6.127810,-22.654777,0.388948,-0.541612,0.639105,-0.383287,-0.272546,0.028405,0.000000
62.150000,1162.926387,30.811811,2871.439144,3.364588,6.215980,-22.641830,0.388948,-0.541612,0.639105,-0.383287,-0.272546,0.028405,0.000000
62.700000,1164.771458,34.254736,2858.989668,3.344877,6.304031,-22.628911,0.388948,-0.541612,0.639105,-0.383287,-0.272546,0.028405,0.000000
63.250000,1166.605684,37.746069,2846.547288,3.325121,6.391970,-22.616021,0.388948,-0.541612,0.639105,-0.383287,-0.272546,0.028405,0.000000
63.800000,1168.429050,41.285763,2834.111993,3.305326,6.479803,-22.603160,0.388948,-0.541612,0.639105,-0.383287,-0.272546,0.028405,0.000000
64.350000,1170.241539,44.873762,2821.683765,3.285500,6.567540,-22.590328,0.388948,-0.541612,0.639105,-0.383287,-0.272546,0.028405,0.000000
64.900000,1172.043130,48.510004,2809.262587,3.265652,6.655191,-22.577524,0.388948,-0.541612,0.639105,-0.383287,-0.272546,0.028405,0.000000
65.450000,1173.833804,52.194431,2796.848441,3.245789,6.742765,-22.564750,0.388948,-0.541612,0.639105,-0.383287,-0.272546,0.028405,0.000000
66.000000,1175.613549,55.926996,2784.441312,3.225916,6.830267,-22.552004,0.388948,-0.541612,0.639105,-0.383287,-0.272546,0.028405,0.000000
66.550000,1177.382361,59.707669,2772.041189,3.206032,6.917692,-22.539287,0.388948,-0.541612,0.639105,-0.383287,-0.272546,0.028405,0.000000
67.100000,1179.140236,63.536422,2759.648060,3.186137,7.005036,-22.526599,0.388948,-0.541612,0.639105,-0.383287,-0.272546,0.028405,0.000000
67.650000,1180.887173,67.413226,2747.261915,3.166229,7.092294,-22.513940,0.388948,-0.541612,0.639105,-0.383287,-0.272546,0.028405,0.000000
68.200000,1182.623168,71.338043,2734.882737,3.146313,7.179478,-22.501309,0.388948,-0.541612,0.639105,-0.383287,-0.272546,0.028405,0.000000
68.750000,1184.348219,75.310832,2722.510507,3.126400,7.266603,-22.488706,0.388948,-0.541612,0.639105,-0.383287,-0.272546,0.028405,0.000000
69.300000,1186.062326,79.331550,2710.145206,3.106498,7.353687,-22.476131,0.388948,-0.541612,0.639105,-0.383287,-0.272546,0.028405,0.000000
69.850000,1187.765487,83.400155,2697.786814,3.086617,7.440748,-22.463583,0.388948,-0.541612,0.639105,-0.383287,-0.272546,0.028405,0.000000
70.400000,1189.457699,87.516604,2685.435313,3.066764,7.527802,-22.451063,0.388948,-0.541612,0.639105,-0.383287,-0.272546,0.028405,0.000000
70.950000,1191.138961,91.680857,2673.090685,3.046947,7.614863,-22.438569,0.388948,-0.541612,0.639105,-0.383287,-0.272546,0.028405,0.000000
71.500000,1192.809277,95.892880,2660.752912,3.027153,7.701901,-22.426102,0.388948,-0.541612,0.639105,-0.383287,-0.272546,0.028405,0.000000
72.050000,1194.468652,100.152645,2648.421983,3.007361,7.788866,-22.413663,0.388948,-0.541612,0.639105,-0.383287,-0.272546,0.028405,0.000000
72.600000,1196.117093,104.460124,2636.097883,2.987546,7.875709,-22.401251,0.388948,-0.541612,0.639105,-0.383287,-0.272546,0.028405,0.000000
73.150000,1197.754605,108.815288,2623.780598,2.967687,7.962378,-22.388866,0.388948,-0.541612,0.639105,-0.383287,-0.272546,0.028405,0.000000
73.700000,1199.381194,113.218108,2611.470115,2.947760,8.048824,-22.376510,0.388948,-0.541612,0.639105,-0.383287,-0.272546,0.028405,0.000000
74.250000,1200.996776,117.668346,2599.166420,2.927523,8.134488,-22.364182,0.388948,-0.541612,0.639105,-0.383287,-0.272546,0.028405,0.000000
74.800000,1202.600564,122.164107,2586.869499,2.905021,8.214897,-22.351881,0.388948,-0.541612,0.639105,-0.383287,-0.272546,0.028405,0.000000
75.350000,1204.190738,126.701166,2574.579347,2.877591,8.283931,-22.339580,0.388948,-0.541612,0.639105,-0.383287,-0.272546,0.028405,0.000000
75.900000,1205.764198,131.272450,2562.295980,2.843224,8.336956,-22.327217,0.388948,-0.541612,0.639105,-0.383287,-0.272546,0.028405,0.000000
76.450000,1207.317382,135.869729,2550.019441,2.803448,8.377486,-22.314731,0.388948,-0.541612,0.639105,-0.383287,-0.272546,0.028405,0.000000
77.000000,1208.847394,140.486302,2537.749801,2.759464,8.408282,-22.302113,0.388948,-0.541612,0.639105,-0.383287,-0.272546,0.028405,0.000000
77.550000,1210.352114,145.117266,2525.487132,2.711692,8.430306,-22.289380,0.388948,-0.541612,0.639105,-0.383287,-0.272546,0.028405,0.000000
